# Rocket Parameters 
Rocket Mass: 4 kg
Coefficient of Drag: 0.55
Rocket Face Area: 0.0075 m^2
Motor Choice: J250
Propellant Mass: 0.487 kg
Motor Burn Time: 2.9 s
Chute Deployment Height: 150 m
Time Step (dt): 0.001 s

# Output Metrics 
Launch Apogee: 773.7946210447778 m
Motor Burn Time: 2.9 s
Peak Velocity: 125.27506016149638 m/s
Landing Velocity: -3.6828746579710323 m/s
Max Acceleration: 167.27441754502323 m/s^2
Coasting Time: 9.981 s

# Flight Data (time, altitude, velocity, acceleration)
0.0, 0.0, 0.0, -9.81
0.001, -4.9050000000000005e-06, -0.009810000000000001, -9.81
0.002, -1.9620000000000002e-05, -0.019619999945821403, -9.809999945821401
0.003, -4.4144999918732107e-05, -0.02942999972909889, -9.809999783277487
0.004, -7.847999953946974e-05, -0.03923999924145498, -9.80999951235609
0.005, -0.00012262499853710277, -0.015644371183134095, 23.595628058320884
0.006, -0.00012647155569107642, 0.007437388058629552, 23.081759241763645
0.007, -0.00010749328801156505, 0.030005240570045853, 22.5678525114163
0.008, -6.620412118581104e-05, 0.05205914756564481, 22.05390699559895
0.009000000000000001, -3.1180201223667547e-06, 0.07359907001907598, 21.539922453431164
0.01, 8.125101112342481e-05, 0.09462496893791558, 21.0258989188396
0.011, 0.00018638892952076017, 0.11513680536278255, 20.51183642486697
0.012, 0.0003117816530959762, 0.1351345403664541, 19.997735003671533
0.013000000000000001, 0.00045691506096426604, 0.15461813505298086, 19.483594686526782
0.014, 0.0006212749933605104, 0.1735875505568019, 18.969415503821033
0.015, 0.0008043472516692227, 0.19204274804185892, 18.455197485057017
0.016, 0.0010056175984536101, 0.2099836887007104, 17.940940658851492
0.017, 0.0012245717574837461, 0.22861947016055145, 18.635781459841052
0.018000000000000002, 0.0014625091183742183, 0.24795014392541542, 19.33067376486397
0.019, 0.0017201245991820657, 0.2679757614613327, 20.025617535917267
0.02, 0.001998113169411357, 0.2886963741946861, 20.72061273335338
0.021, 0.00229716984997272, 0.3101120335105674, 21.415659315881307
0.022, 0.0026179897131412286, 0.3322227907511333, 22.110757240565945
0.023, 0.002961267882512645, 0.3550286972139607, 22.805906462827352
0.024, 0.0033276995329580197, 0.3785298041504008, 23.50110693644006
0.025, 0.0037179798905766404, 0.40272616276393314, 24.196358613532375
0.026000000000000002, 0.004132804232647339, 0.4276178242085188, 24.891661444585644
0.027, 0.004572867887578151, 0.4532048395869524, 25.587015378433613
0.028, 0.00503886623485432, 0.4794872599492141, 26.282420362261668
0.029, 0.005531494704984665, 0.5064651362908202, 26.97787634160617
0.03, 0.006051448779446288, 0.534138519551174, 27.67338326035375
0.031, 0.006599423990627638, 0.5625074606119146, 28.36894106074062
0.032, 0.007176115921769923, 0.5915720102952664, 29.064549683351842
0.033, 0.007782220206906865, 0.6213322193623871, 29.760209067120694
0.034, 0.008418432530802813, 0.651788138511715, 30.455919149327915
0.035, 0.009085448628889192, 0.6829398183773161, 31.15167986560104
0.036000000000000004, 0.009783964287199309, 0.7147873095272298, 31.847491149913694
0.037, 0.010514675342301496, 0.7473306624618148, 32.54335293458494
0.038, 0.011278277681230603, 0.7805699276120933, 33.23926515027855
0.039, 0.012075467241417835, 0.8145051553380956, 33.93522772600228
0.04, 0.012906940010618932, 0.8491363959272029, 34.631240589107314
0.041, 0.013773392026840688, 0.8844636995924904, 35.327303665287424
0.042, 0.014675519378265823, 0.9204871164710687, 36.02341687857838
0.043000000000000003, 0.015614018203176181, 0.957206696622426, 36.71958015135723
0.044, 0.016589584689874284, 0.9946224900267676, 37.41579340434163
0.045, 0.01760291507660322, 1.0327345465833568, 38.11205655658915
0.046, 0.018654705651464872, 1.0715429161088534, 38.80836952549662
0.047, 0.019745652752336473, 1.1110476483356528, 39.50473222679941
0.048, 0.020876452766785528, 1.1512487929102238, 40.201144574570804
0.049, 0.022047802131983037, 1.196417632142545, 45.16883923232136
0.05, 0.023266804183741743, 1.2465545300575738, 50.13689791502883
0.051000000000000004, 0.02453842716275683, 1.3016598499611887, 55.10531990361485
0.052000000000000005, 0.025867639672669827, 1.3569312558091322, 55.2714058479435
0.053, 0.02725220663140293, 1.4123687563773837, 55.437500568251565
0.054, 0.028692294138064442, 1.4679723604118147, 55.603604034430916
0.055, 0.030188068300493472, 1.5237420766280958, 55.76971621628118
0.056, 0.03173969523522971, 1.5796779137115977, 55.935837083501966
0.057, 0.03334734106748306, 1.6357798803172907, 56.101966605692986
0.058, 0.035011171931103195, 1.6920479850696446, 56.26810475235393
0.059000000000000004, 0.03673135396854902, 1.748482236562529, 56.43425149288446
0.06, 0.038508053330857994, 1.8050826433591134, 56.6004067965843
0.061, 0.0403414361776154, 1.8618492139917664, 56.766570632653014
0.062, 0.042231668676923496, 1.9187819569619566, 56.932742970190134
0.063, 0.04417891700537055, 1.9758808807401518, 57.098923778195086
0.064, 0.0461833473479998, 2.033145993765719, 57.26511302556718
0.065, 0.0482451258982783, 2.0905773044468243, 57.43131068110564
0.066, 0.050364418858065675, 2.1481748211603335, 57.597516713509414
0.067, 0.05254139243758276, 2.2059385522517108, 57.76373109137733
0.068, 0.05477621285538017, 2.263868506034919, 57.92995378320803
0.069, 0.057069046338306686, 2.321964690792319, 58.0961847573999
0.07, 0.05942005912147771, 2.38022711477457, 58.26242398225102
0.07100000000000001, 0.061829417448243405, 2.4386557862005294, 58.42867142595932
0.07200000000000001, 0.06429728757015692, 2.4972507132571518, 58.59492705662232
0.073, 0.06682383574694238, 2.556011904099389, 58.76119084223728
0.074, 0.0694092282464629, 2.61493936685009, 58.92746275070118
0.075, 0.07205363134468834, 2.6740331095999004, 59.093742749810545
0.076, 0.07475721132566315, 2.733293140407162, 59.2600308072616
0.077, 0.07752013448147393, 2.7927194672978124, 59.4263268906501
0.078, 0.08034256711221707, 2.8521704011090847, 59.45093381127223
0.079, 0.0832244629802318, 2.9116459396205, 59.47553851141547
0.08, 0.086165846689108, 2.971146080606386, 59.500140985886155
0.081, 0.08916674284020733, 3.0306708218358747, 59.5247412294888
0.082, 0.09222717603265795, 3.0902201610729003, 59.54933923702579
0.083, 0.09534717086334936, 3.1497940960761976, 59.57393500329753
0.084, 0.09852675192692721, 3.2093926245993, 59.598528523102296
0.085, 0.10176594381578806, 3.2690157443905363, 59.62311979123637
0.08600000000000001, 0.10506477112007422, 3.3286634531930304, 59.64770880249388
0.08700000000000001, 0.10842325842766849, 3.3883357487446975, 59.672295551666984
0.088, 0.11184143032418903, 3.4480326287782432, 59.696880033545774
0.089, 0.11531931139298404, 3.5077540910211615, 59.721462242918214
0.09, 0.11885692621512667, 3.5675001331957317, 59.74604217457033
0.091, 0.12245429936940969, 3.6272707530190176, 59.77061982328599
0.092, 0.12611145543234034, 3.6870659482028647, 59.79519518384713
0.093, 0.12982841897813513, 3.7468857164538982, 59.81976825103356
0.094, 0.13360521457871455, 3.8067300554735213, 59.84433901962308
0.095, 0.13744186680369788, 3.8665989629579127, 59.868907484391464
0.096, 0.14133840022039798, 3.926492436598025, 59.89347364011241
0.097, 0.14529483939381604, 3.9864104740795825, 59.91803748155761
0.098, 0.1493112088866364, 4.046353073083079, 59.94259900349677
0.099, 0.15338753325922122, 4.106320231283776, 59.96715820069751
0.1, 0.15752383706960535, 4.166311946351701, 59.99171506792541
0.101, 0.161720144873491, 4.2263282159516455, 60.01626959994411
0.10200000000000001, 0.16597648122424263, 4.28636903774316, 60.040821791515114
0.10300000000000001, 0.17029287067288154, 4.346434409380558, 60.065371637398044
0.10400000000000001, 0.1746693377680808, 4.4065243285129085, 60.089919132350374
0.105, 0.1791059070561599, 4.466638792784036, 60.114464271127645
0.106, 0.18360260308107948, 4.526777799832519, 60.13900704848338
0.107, 0.18815945038443624, 4.586941347291688, 60.16354745916909
0.108, 0.1927764735054575, 4.647129432789622, 60.18808549793427
0.109, 0.1974536969809961, 4.707342053949149, 60.21262115952637
0.11, 0.20219114534552501, 4.76757920838784, 60.23715443869094
0.111, 0.2069888431311322, 4.827840893718012, 60.26168533017145
0.112, 0.2118468148675153, 4.888127107546721, 60.28621382870939
0.113, 0.21676508508197637, 4.948437847475765, 60.31073992904432
0.114, 0.22174367829941666, 5.008773111101679, 60.335263625913704
0.115, 0.2267826190423313, 5.069132896015732, 60.359784914053066
0.116, 0.23188193183080405, 5.129517199803928, 60.38430378819599
0.117, 0.23704164118250207, 5.189926020047002, 60.40882024307405
0.11800000000000001, 0.2422617716126706, 5.250359354320419, 60.433334273416754
0.11900000000000001, 0.24754234763412772, 5.3108172001943705, 60.457845873951754
0.12, 0.25288339375725905, 5.371299555233775, 60.48235503940466
0.121, 0.25828493449001255, 5.431806416998274, 60.50686176449911
0.122, 0.26374699433789306, 5.492337783042231, 60.53136604395682
0.123, 0.2692695978039573, 5.552893650914728, 60.555867872497465
0.124, 0.27485276938880826, 5.613474018159567, 60.58036724483885
0.125, 0.2804965335905903, 5.674078882315264, 60.6048641556967
0.126, 0.2862009149049834, 5.734708240915049, 60.629358599784865
0.127, 0.2919659378251983, 5.795362091486864, 60.65385057181521
0.128, 0.2977916268419711, 5.856040431553362, 60.67834006649764
0.129, 0.3036780064435577, 5.916743258631902, 60.70282707854011
0.13, 0.30962510111572883, 5.9774705702345505, 60.72731160264863
0.131, 0.31563293534176473, 6.038222363868078, 60.751793633527264
0.132, 0.3217015336024496, 6.098998637033956, 60.776273165878145
0.133, 0.3278309203760665, 6.159799387228357, 60.80075019440142
0.134, 0.3340211201383921, 6.220624611942153, 60.8252247137953
0.135, 0.3402721573626912, 6.281474308660909, 60.849696718756114
0.136, 0.3465840565197114, 6.342348474864886, 60.87416620397821
0.137, 0.35295684207767825, 6.40324710802904, 60.898633164154
0.138, 0.35939053850228936, 6.464170205623014, 60.92309759397401
0.139, 0.36588517025670936, 6.5251177651111405, 60.94755948812678
0.14, 0.3724407618015646, 6.586089783952439, 60.97201884129896
0.14100000000000001, 0.37905733759493765, 6.647086259600615, 60.99647564817529
0.14200000000000002, 0.3857349220923623, 6.708107189504053, 61.020929903438564
0.14300000000000002, 0.3924735397468181, 6.769152571105823, 61.04538160176963
0.14400000000000002, 0.3992732150087248, 6.83022240184367, 61.069830737847504
0.145, 0.4061339723259374, 6.8913166791500196, 61.09427730634924
0.146, 0.4130558361437406, 6.95243540045197, 61.118721301949975
0.147, 0.42003883090484356, 7.013578563171293, 61.14316271932296
0.148, 0.42708298104937453, 7.0747461647244325, 61.16760155313952
0.149, 0.43418831101487554, 7.135938202522501, 61.1920377980691
0.15, 0.4413548452362971, 7.197154673971281, 61.21647144877926
0.151, 0.44858260814599277, 7.258395576471217, 61.240902499935615
0.152, 0.45587162417371396, 7.319660907417418, 61.26533094620192
0.153, 0.4632219177466045, 7.380950664199658, 61.289756782240055
0.154, 0.4706335132891952, 7.442264844202368, 61.31418000270996
0.155, 0.4781064352233989, 7.503603444804638, 61.33860060226974
0.156, 0.4856407079685047, 7.564966463380213, 61.36301857557558
0.157, 0.49323635594117277, 7.626353897297495, 61.38743391728185
0.158, 0.5008934035554289, 7.6877657439195355, 61.411846622040926
0.159, 0.5086118752226594, 7.749202000604039, 61.43625668450341
0.16, 0.5163917953516056, 7.810662664703357, 61.46066409931804
0.161, 0.5242331883483586, 7.872147733564488, 61.485068861131566
0.162, 0.5321360786163537, 7.933657204529077, 61.509470964588985
0.163, 0.5401004905563651, 7.995191074933411, 61.533870404333406
0.164, 0.5481264485665007, 8.056749342108416, 61.55826717500604
0.165, 0.5562139770421967, 8.118332003379663, 61.58266127124628
0.166, 0.564363100376212, 8.179939056067354, 61.60705268769165
0.167, 0.5725738429586232, 8.241570497486332, 61.631441418977815
0.168, 0.580846229176819, 8.30322632494607, 61.65582745973856
0.169, 0.589180283415495, 8.364906535750677, 61.68021080460586
0.17, 0.597576030056648, 8.426611127198887, 61.70459144820989
0.171, 0.606033493479571, 8.488340096584066, 61.72896938517884
0.17200000000000001, 0.6145526980608477, 8.550093441194205, 61.75334461013922
0.17300000000000001, 0.6231336681743469, 8.61187115831192, 61.777717117715625
0.17400000000000002, 0.6317764281912177, 8.673673245214452, 61.802086902530796
0.17500000000000002, 0.6404810024798834, 8.735499699173658, 61.82645395920567
0.176, 0.6492474154060366, 8.797350517456017, 61.85081828235937
0.177, 0.6580756913326338, 8.859225697322627, 61.87517986660915
0.178, 0.6669658546198898, 8.921125236029198, 61.89953870657047
0.179, 0.6759179296252722, 8.983049130826055, 61.92389479685698
0.18, 0.6849319407034966, 9.044997378958136, 61.948248132080494
0.181, 0.6940079122065208, 9.106969977664987, 61.97259870685099
0.182, 0.7031458684835392, 9.168966924180763, 61.996946515776706
0.183, 0.7123458338809779, 9.230988215734227, 62.02129155346396
0.184, 0.7216078327424889, 9.293033849548744, 62.045633814517345
0.185, 0.7309318894089448, 9.355103822842283, 62.06997329353963
0.186, 0.740318028218434, 9.417198132827414, 62.09430998513178
0.187, 0.7497662735062539, 9.479316776711308, 62.118643883892965
0.188, 0.7592766496049072, 9.541459751695728, 62.14297498442053
0.189, 0.7688491808440951, 9.603627054977038, 62.16730328131009
0.19, 0.7784838915507128, 9.665818683746194, 62.19162876915539
0.191, 0.7881808060488436, 9.728034635188742, 62.21595144254845
0.192, 0.7979399486597536, 9.790274906484822, 62.240271296079456
0.193, 0.8077613437018865, 9.85253949480916, 62.26458832433684
0.194, 0.8176450154908578, 9.914828397331066, 62.28890252190729
0.195, 0.8275909883394498, 9.977141611214442, 62.31321388337563
0.196, 0.8375992865576058, 10.039479133617768, 62.337522403324996
0.197, 0.8476699344524253, 10.101840961694105, 62.3618280763367
0.198, 0.8578029563281576, 10.164227092591096, 62.38613089699029
0.199, 0.8679983764861973, 10.22663752345096, 62.41043085986357
0.2, 0.8782562192250782, 10.289072251410492, 62.43472795953256
0.201, 0.8885765088404686, 10.351531273601063, 62.459022190571545
0.202, 0.8989592696251649, 10.414014587148616, 62.48331354755301
0.203, 0.9094045258690874, 10.476522189173664, 62.50760202504776
0.20400000000000001, 0.9199123018592736, 10.53905407679129, 62.53188761762477
0.20500000000000002, 0.9304826218798739, 10.601610247111141, 62.5561703198513
0.20600000000000002, 0.9411155102121449, 10.664190697237434, 62.58045012629289
0.20700000000000002, 0.9518109911344454, 10.726795424268946, 62.604727031513264
0.20800000000000002, 0.9625690889222301, 10.789424425299021, 62.62900103007447
0.209, 0.9733898278480443, 10.852077697415558, 62.65327211653681
0.21, 0.9842732321815182, 10.914755237701016, 62.67754028545884
0.211, 0.9952193261893619, 10.977457043232413, 62.70180553139738
0.212, 1.00622813413536, 11.04018311108132, 62.72606784890753
0.213, 1.0172996802803658, 11.102933438313864, 62.75032723254266
0.214, 1.028433988882296, 11.165708021990717, 62.77458367685442
0.215, 1.0396310841961252, 11.22850685916711, 62.798837176392766
0.216, 1.0508909904738803, 11.291329946892816, 62.82308772570585
0.217, 1.062213731964636, 11.354177282212156, 62.84733531934018
0.218, 1.073599332914508, 11.417048862163997, 62.87157995184061
0.219, 1.085047817566648, 11.479944683781747, 62.895821617750144
0.22, 1.0965592101612385, 11.542864744093357, 62.92006031161017
0.221, 1.1081335349354877, 11.605809040121319, 62.94429602796036
0.222, 1.119770816123623, 11.668718061383824, 62.90902126250589
0.223, 1.1314709886956382, 11.731591801189174, 62.87373980534924
0.224, 1.14323401736673, 11.794430252852584, 62.83845166340965
0.225, 1.1550598668454142, 11.857233409696189, 62.803156843605365
0.226, 1.1669485018335322, 11.920001265049041, 62.767855352853374
0.227, 1.1788998870262577, 11.98273381224711, 62.73254719806935
0.228, 1.190913987112104, 12.045431044633277, 62.69723238616772
0.229, 1.2029907667729303, 12.108092955557339, 62.661910924061566
0.23, 1.2151301906839496, 12.170719538376002, 62.626582818662676
0.231, 1.227332223513735, 12.233310786452883, 62.59124807688151
0.232, 1.2395968299242264, 12.29586669315851, 62.555906705627216
0.233, 1.2519239745707378, 12.358387251870319, 62.520558711807645
0.234, 1.264313622101964, 12.420872455972647, 62.48520410232929
0.23500000000000001, 1.2767657371599879, 12.483322298856745, 62.44984288409731
0.23600000000000002, 1.2892802843802866, 12.54573677392076, 62.41447506401555
0.23700000000000002, 1.3018572283917393, 12.608115874569746, 62.37910064898645
0.23800000000000002, 1.3144965338166335, 12.670459594215657, 62.343719645911165
0.23900000000000002, 1.3271981652706721, 12.732767926277347, 62.30833206168942
0.24, 1.3399620873629805, 12.795040864180567, 62.272937903219606
0.241, 1.3527882646961127, 12.857278401357966, 62.237537177398764
0.242, 1.3656766618660592, 12.91948053124909, 62.20212989112253
0.243, 1.378627243462254, 12.981647247300375, 62.166716051285164
0.244, 1.39163997406758, 13.043778542965153, 62.13129566477953
0.245, 1.4047148182583775, 13.10587441170365, 62.09586873849712
0.246, 1.4178517406044504, 13.167934846982979, 62.060435279327976
0.247, 1.431050705669073, 13.22995984227714, 62.02499529416081
0.248, 1.4443116780089973, 13.291949391067023, 61.98954878988284
0.249, 1.4576346221744592, 13.353903486840403, 61.954095773379876
0.25, 1.4710195027091864, 13.41582212309194, 61.918636251536384
0.251, 1.4844662841504042, 13.477705293323176, 61.8831702312353
0.252, 1.497974931028843, 13.539552991042534, 61.84769771935817
0.253, 1.5115454078687451, 13.60136520976532, 61.8122187227851
0.254, 1.5251776791878717, 13.663141943013715, 61.77673324839476
0.255, 1.5388717094975097, 13.724883184316779, 61.74124130306432
0.256, 1.5526274633024781, 13.786588927210449, 61.7057428936695
0.257, 1.5664449051011353, 13.848259165237533, 61.670238027084594
0.258, 1.5803239993853864, 13.909893891947714, 61.63472671018242
0.259, 1.5942647106406893, 13.971493100897549, 61.59920894983426
0.26, 1.6082670033460618, 14.033056785650459, 61.563684752909964
0.261, 1.6223308419740885, 14.094584939776736, 61.52815412627789
0.262, 1.6364561909909283, 14.15607755685354, 61.49261707680487
0.263, 1.6506430148563203, 14.217534630464897, 61.45707361135631
0.264, 1.664891278023591, 14.278956154201692, 61.42152373679597
0.265, 1.679200944939661, 14.340342121661678, 61.38596745998624
0.266, 1.6935719800450526, 14.401692526449466, 61.35040478778793
0.267, 1.708004347773896, 14.463007362176526, 61.31483572706031
0.268, 1.722498012553936, 14.524286622461187, 61.27926028466116
0.269, 1.7370529388065394, 14.585530300928633, 61.24367846744668
0.27, 1.7516690909467016, 14.646795000378328, 61.264699449693865
0.271, 1.7663465182968048, 14.70808071778673, 61.28571740840224
0.272, 1.7810852418732956, 14.769387450125652, 61.30673233892247
0.273, 1.7958852826895906, 14.830715194362256, 61.32774423660375
0.274, 1.8107466617560712, 14.89206394745905, 61.34875309679414
0.275, 1.8256694000800786, 14.953433706373891, 61.36975891484067
0.276, 1.8406535186659099, 15.014824468059981, 61.390761686089235
0.277, 1.8556990385148129, 15.076236229465865, 61.411761405884626
0.278, 1.8708059806249817, 15.137668987535436, 61.43275806957065
0.279, 1.885974365991552, 15.199122739207926, 61.453751672489936
0.28, 1.901204215606596, 15.26059748141791, 61.47474220998404
0.281, 1.916495550459119, 15.322093211095304, 61.49572967739355
0.28200000000000003, 1.931848391535053, 15.383609925165361, 61.51671407005785
0.28300000000000003, 1.9472627598172534, 15.445147620548676, 61.53769538331533
0.28400000000000003, 1.9627386762854937, 15.506706294161178, 61.558673612503284
0.28500000000000003, 1.978276161916461, 15.568285942914136, 61.579648752957986
0.28600000000000003, 1.9938752376837516, 15.62988656371415, 61.600620800014596
0.28700000000000003, 2.009535924557866, 15.691508153463158, 61.621589749007256
0.28800000000000003, 2.0252582435062036, 15.753150709058426, 61.642555595269016
